x;y;theta;steering_v;driving_v
0.0388043; -0.0769523; -0.0191675; 0.0222427; -2.1
0.0755293; -0.149781; -0.037308; 0.0222427; -2.1
0.113846; -0.225766; -0.0562345; 0.0222427; -2.1
0.151201; -0.299845; -0.0746862; 0.0222427; -2.1
0.185784; -0.368425; -0.0917685; 0.0222427; -2.1
0.223233; -0.44269; -0.110267; 0.0222427; -2.1
0.261321; -0.518222; -0.12908; 0.0222427; -2.1
0.298347; -0.591649; -0.14737; 0.0222427; -2.1
0.335126; -0.664584; -0.165537; 0.0222427; -2.1
0.372759; -0.739213; -0.184125; 0.0222427; -2.1
0.406139; -0.80541; -0.200614; 0.0222427; -2.1
0.444597; -0.881675; -0.21961; 0.0222427; -2.1
0.48273; -0.957296; -0.238446; 0.0222427; -2.1
0.519504; -1.03022; -0.256611; 0.0222427; -2.1
0.558279; -1.10712; -0.275764; 0.0222427; -2.1
0.596399; -1.18271; -0.294594; 0.0222427; -2.1
0.66619; -1.32111; -0.329067; 0.0222427; -2.1
0.704663; -1.39741; -0.348071; 0.0222427; -2.1
0.780574; -1.54795; -0.385567; 0.0222427; -2.1
0.81904; -1.62423; -0.404568; 0.0222427; -2.1
0.859064; -1.7036; -0.424338; 0.0222427; -2.1
0.891343; -1.76761; -0.440282; 0.0222427; -2.1
0.926881; -1.83809; -0.457836; 0.0222427; -2.1
0.965096; -1.91387; -0.476712; 0.0222427; -2.1
1.00307; -1.98917; -0.495468; 0.0222427; -2.1
1.07883; -2.13941; -0.532891; 0.0222427; -2.1
1.1121; -2.20539; -0.549325; 0.0222427; -2.1
1.18637; -2.35267; -0.586011; 0.0222427; -2.1
1.22483; -2.42895; -0.60501; 0.0222427; -2.1
1.26267; -2.504; -0.623703; 0.0222427; -2.1
1.29567; -2.56943; -0.64; 0.0222427; -2.1
1.33373; -2.6449; -0.6588; 0.0222427; -2.1
1.3707; -2.71822; -0.677063; 0.0222427; -2.1
1.40573; -2.7917; -0.695166; 0.0222427; -2
1.44038; -2.86439; -0.713076; 0.0222427; -2
1.50918; -3.00872; -0.748637; 0.0222427; -2
1.56753; -3.13849; -0.780283; 0.0222427; -1.9
1.59576; -3.2052; -0.796392; 0.0222427; -1.8
1.62354; -3.27084; -0.812245; 0.0222427; -1.8
1.65144; -3.33677; -0.828166; 0.0222427; -1.8
1.67679; -3.40059; -0.843439; 0.0222427; -1.7
1.69649; -3.4536; -0.856018; 0.0222427; -1.6
1.71868; -3.51331; -0.870184; 0.0222427; -1.6
1.73879; -3.57134; -0.883844; 0.0222427; -1.5
1.75584; -3.62429; -0.896217; 0.0222427; -1.4
1.77257; -3.67628; -0.908363; 0.0222427; -1.4
1.79761; -3.76787; -0.929481; 0.0222427; -1.2
1.81776; -3.84857; -0.947981; 0.0222427; -1.1
1.82652; -3.88734; -0.95682; 0.0222427; -1
1.83372; -3.92283; -0.964875; 0.0222427; -0.9
1.84085; -3.95794; -0.972844; 0.0222427; -0.9
1.84717; -4.00504; -0.983411; 0.0222427; -0.6
1.84915; -4.02277; -0.987379; 0.0222427; -0.5
1.85202; -4.05499; -0.994574; 0.0222427; -0.4
1.85282; -4.06697; -0.997246; 0.0222427; -0.3
1.8532; -4.07547; -0.999138; 0.0222427; -0.2
1.85328; -4.07909; -0.999943; 0.0222427; -0.1
1.85328; -4.07909; -0.999943; 0.0222427; 0
1.85328; -4.07909; -0.999943; 0.0222427; 0
1.85328; -4.07909; -0.999943; 0.0222427; 0
1.85399; -4.06312; -0.996386; 0.0222427; 0.2
1.8555; -4.04063; -0.991375; 0.0222427; 0.3
1.85689; -4.02498; -0.987879; 0.0222427; 0.4
1.85832; -4.00894; -0.984297; 0.0222427; 0.4
1.86056; -3.98889; -0.97981; 0.0222427; 0.5
1.86282; -3.96868; -0.975288; 0.0222427; 0.5
1.866; -3.94549; -0.969974; 0.0227029; 0.6
1.8708; -3.9178; -0.963078; 0.0245437; 0.7
1.87521; -3.89364; -0.956751; 0.0257709; 0.7
1.88201; -3.86208; -0.948183; 0.0265379; 0.8
1.89109; -3.82609; -0.937992; 0.0274583; 0.9
1.91365; -3.75212; -0.9151; 0.0296058; 1
1.92437; -3.71808; -0.904209; 0.0305262; 1
1.93926; -3.67719; -0.890391; 0.0317534; 1.1
1.95761; -3.6335; -0.874695; 0.033134; 1.2
1.98122; -3.58419; -0.855912; 0.0343612; 1.3
2.00888; -3.53584; -0.835241; 0.0371223; 1.4
2.03709; -3.48957; -0.814048; 0.0391165; 1.4
2.07306; -3.44001; -0.788411; 0.0418777; 1.5
2.16535; -3.35494; -0.727423; 0.0486272; 1.7
2.22441; -3.31059; -0.689397; 0.0515418; 1.8
2.3847; -3.26026; -0.587931; 0.0605922; 2.1
2.4706; -3.24541; -0.532288; 0.0641204; 2.2
2.55274; -3.24122; -0.477572; 0.0668816; 2.3
2.64631; -3.24281; -0.41233; 0.0701029; 2.3
2.7417; -3.26468; -0.339925; 0.0740913; 2.5
2.841; -3.29783; -0.25998; 0.075932; 2.6
2.9396; -3.34203; -0.173669; 0.078233; 2.7
3.02784; -3.39188; -0.0875034; 0.0808408; 2.8
3.12009; -3.45111; 0.0106005; 0.082068; 2.9
3.2689; -3.55809; 0.206108; 0.0849825; 3.1
3.41434; -3.60471; 0.445937; 0.0874369; 3.4
3.48693; -3.59328; 0.569965; 0.0892777; 3.5
3.56607; -3.53749; 0.699355; 0.0906583; 3.6
3.64835; -3.44015; 0.820095; 0.0915787; 3.7
3.74223; -3.31476; 0.951975; 0.0928058; 3.7
3.89761; -3.02582; 1.10174; 0.0941864; 3.9
4.10569; -2.61708; 1.25768; 0.0952602; 4
4.36934; -2.09617; 1.40789; 0.0964874; 4.1
5.33867; -0.282191; 1.74848; 0.0980214; 4.3
6.81183; 2.25513; 2.08241; 0.0992486; 4.5
7.60804; 3.6265; 2.26289; 0.0992486; 4.5
8.69861; 5.34583; 2.42881; 0.100322; 4.7
10.3882; 7.91046; 2.64681; 0.100476; 4.8
11.9435; 10.1849; 2.81798; 0.100629; 4.9
13.7086; 12.7662; 3.01224; 0.100629; 4.9
16.7321; 16.7501; 3.22714; 0.100936; 5.2
19.6113; 20.5343; 3.42996; 0.101089; 5.2
27.5172; 30.3052; 3.86058; 0.101089; 5.4
32.7978; 36.4638; 4.08631; 0.101089; 5.6
45.7581; 50.7747; 4.52694; 0.101089; 5.8
53.5823; 59.1911; 4.76525; 0.101089; 5.9
62.4143; 68.4528; 5.00691; 0.101089; 6
73.8348; 79.8585; 5.26109; 0.101089; 6.2
83.8915; 89.9021; 5.48492; 0.101089; 6.2
97.9851; 103.341; 5.74252; 0.101089; 6.4
113.689; 117.986; 6.0035; 0.101089; 6.5
129.346; 132.586; 6.26369; 0.101089; 6.5
172.652; 170.486; 6.8112; 0.101089; 6.8
197.023; 191.388; 7.09352; 0.101089; 6.9
258.023; 240.664; 7.6386; 0.101243; 7.2
292.959; 268.369; 7.92653; 0.101243; 7.3
337.059; 302.715; 8.26223; 0.101243; 7.4
377.971; 333.482; 8.52902; 0.101243; 7.6
430.377; 372.228; 8.84596; 0.101243; 7.7
479.042; 407.613; 9.11926; 0.101243; 7.8
610.986; 500.493; 9.76047; 0.101243; 8
781.093; 614.802; 10.4316; 0.101243; 8.3
873.76; 676.149; 10.7733; 0.101243; 8.4
980.423; 744.732; 11.1181; 0.101243; 8.6
1101.53; 821.501; 11.4851; 0.101243; 8.7
1224.82; 898.571; 11.8356; 0.101243; 8.8
1358.21; 979.705; 12.1705; 0.101243; 9
1503.72; 1068.21; 12.5358; 0.101243; 9
1855.37; 1273.82; 13.2725; 0.101243; 9.3
2048.12; 1385.09; 13.6533; 0.101243; 9.4
2455.57; 1614.49; 14.3706; 0.101243; 9.6
2704.47; 1751.26; 14.7622; 0.101243; 9.8
2975.11; 1898.21; 15.1652; 0.101243; 9.9
3262.32; 2052.33; 15.5701; 0.101243; 10
3606.39; 2232.76; 16.0058; 0.101243; 10.2
3946.82; 2409.26; 16.4149; 0.101243; 10.3
4250.08; 2566.5; 16.7792; 0.101243; 10.3
4636.6; 2762.5; 17.1979; 0.101243; 10.5
5073.86; 2979.48; 17.6258; 0.101243; 10.7
6149.96; 3496.87; 18.534; 0.101243; 11
6665.82; 3744.46; 18.9666; 0.101396; 11
7856.21; 4298.66; 19.8312; 0.101396; 11.3
8513.95; 4601.85; 20.2871; 0.101396; 11.4
9249.28; 4934.24; 20.7518; 0.101396; 11.6
9979; 5264.08; 21.2129; 0.101396; 11.6
10813.8; 5634.27; 21.6947; 0.101396; 11.8
11734.7; 6035.03; 22.1809; 0.101396; 12
13710.9; 6879.45; 23.1372; 0.101396; 12.2
15912; 7803.13; 24.1149; 0.101396; 12.4
17031.4; 8264.63; 24.5719; 0.101396; 12.6
18338.6; 8798.91; 25.0839; 0.101396; 12.7
19707.4; 9353.53; 25.5983; 0.101396; 12.8
21220.9; 9956.45; 26.1227; 0.101396; 13
22806.8; 10586; 26.6609; 0.100936; 13.1
24343.7; 11195.2; 27.1751; 0.100322; 13.2
25941.7; 11826.4; 27.6991; 0.0998621; 13.3
27669; 12501.1; 28.2332; 0.099402; 13.5
31120; 13841.2; 29.2609; 0.0984816; 13.7
35001.2; 15333.2; 30.349; 0.0972544; 14
36953.2; 16084.3; 30.8941; 0.0964874; 14.1
38589.7; 16714.6; 31.3496; 0.0957204; 14.2
40461.3; 17443.5; 31.8861; 0.0934194; 14.4
42278.2; 18158.6; 32.4247; 0.0918854; 14.5
43926.1; 18823; 32.9536; 0.0886641; 14.7
45336.6; 19405; 33.4456; 0.0862097; 14.8
46585.1; 19938.4; 33.94; 0.0829884; 14.9
48132.3; 20663.7; 34.798; 0.0748583; 15.2
48793.2; 20988.6; 35.2343; 0.0713301; 15.3
49391; 21337.7; 35.9822; 0.0607456; 15.5
49543.6; 21441.5; 36.3156; 0.0529223; 15.7
49616.5; 21500.5; 36.6142; 0.0460194; 15.8
49640.7; 21525; 36.8321; 0.0388097; 16
49650.7; 21537.8; 37.0436; 0.0329806; 16.1
49652.3; 21540.9; 37.2139; 0.0254641; 16.2
49652.7; 21540.6; 37.3163; 0.0161068; 16.3
49653.5; 21541.6; 37.3693; 0.00398835; 16.6
49653.1; 21542.1; 37.3423; -0.00398835; 16.7
49652.1; 21541.5; 37.171; -0.0138058; 16.9
49651.7; 21541.3; 37.0582; -0.016567; 17
49651.1; 21542.5; 36.9094; -0.0213223; 17.1
49644.6; 21551.9; 36.7113; -0.028532; 17.3
49626.1; 21573; 36.4774; -0.0329806; 17.4
49591; 21605.9; 36.2574; -0.0371223; 17.6
49525.6; 21661.4; 35.9716; -0.0398835; 17.6
49407.9; 21748.9; 35.6577; -0.0435651; 17.8
49238.5; 21864; 35.3352; -0.0464796; 17.9
48598; 22240.9; 34.6326; -0.0513884; 18.2
48099.5; 22519.5; 34.185; -0.0533825; 18.3
46940.6; 23122.2; 33.4002; -0.0561437; 18.5
46128.5; 23529.3; 32.9255; -0.0576777; 18.6
45497.9; 23836.7; 32.5969; -0.0584447; 18.8
44449.8; 24337.2; 32.0953; -0.0592117; 18.9
43558.3; 24754.3; 31.703; -0.0599786; 19
42408.3; 25283; 31.232; -0.0605922; 19.1
41155.3; 25849.1; 30.7569; -0.060899; 19.3
39869.5; 26421.9; 30.2976; -0.0613592; 19.4
38394.5; 27071.6; 29.7957; -0.061666; 19.5
36898.4; 27721.2; 29.3186; -0.0618194; 19.7
35271.2; 28418.1; 28.829; -0.0622796; 19.8
31728.2; 29898.3; 27.8749; -0.0627398; 20.1
29784.9; 30701.3; 27.3755; -0.0630466; 20.2
27606.8; 31589.4; 26.8467; -0.0635068; 20.3
25337.7; 32499.9; 26.334; -0.0638136; 20.5
22979; 33441.3; 25.8118; -0.0641204; 20.5
20769.1; 34318.7; 25.3349; -0.0641204; 20.6
18208.9; 35319.1; 24.8202; -0.0644272; 20.8
11766; 37747.6; 23.7101; -0.0656544; 21.1
8450.5; 38987.7; 23.1583; -0.0658078; 21.2
-189.304; 42070; 21.9728; -0.0681087; 21.4
-4266.34; 43499.7; 21.4546; -0.0685689; 21.6
-9046.97; 45151.9; 20.8831; -0.0691825; 21.7
-14677.6; 47056.2; 20.27; -0.0699495; 21.9
-20790.8; 49089.8; 19.6488; -0.0707165; 22
-27561.3; 51315.8; 18.9946; -0.0711767; 22.1
-34550.7; 53576.2; 18.367; -0.0716369; 22.3
-49529.9; 58331.5; 17.1273; -0.0722505; 22.5
-57610; 60878.9; 16.4793; -0.0724039; 22.6
-76362.7; 66631.4; 15.146; -0.0733243; 22.9
-85290.3; 69345.4; 14.536; -0.0736311; 23
-97521.9; 73013.9; 13.7501; -0.0739379; 23.2
-106610; 75721.3; 13.1839; -0.0740913; 23.3
-118117; 79104.2; 12.5061; -0.0747049; 23.4
-130683; 82758.5; 11.8; -0.0751651; 23.5
-142589; 86175.4; 11.1701; -0.0754719; 23.7
-158860; 90794.9; 10.3485; -0.075932; 23.8
-172412; 94609.2; 9.68977; -0.0762388; 23.9
-204911; 103601; 8.22516; -0.0768524; 24.1
-224095; 108787; 7.44612; -0.0776194; 24.4
-244176; 114148; 6.67289; -0.078233; 24.5
-264242; 119482; 5.91616; -0.078233; 24.6
-285306; 125034; 5.154; -0.078233; 24.8
-307131; 130763; 4.37689; -0.0785398; 24.8
-327256; 135991; 3.69458; -0.0786932; 25
-352034; 142375; 2.888; -0.0786932; 25.2
-402587; 155293; 1.30745; -0.0786932; 25.4
-429456; 162104; 0.50032; -0.0786932; 25.6
-453848; 168261; -0.217952; -0.0786932; 25.7
-482125; 175370; -1.03431; -0.0786932; 25.8
-511635; 182730; -1.85338; -0.0786932; 26
-540763; 189966; -2.6462; -0.0786932; 26.1
-573325; 197991; -3.49864; -0.0786932; 26.3
-605349; 205852; -4.32096; -0.0786932; 26.4
-639388; 214143; -5.16203; -0.0786932; 26.6
-669845; 221532; -5.90037; -0.0786932; 26.7
-704681; 229952; -6.72895; -0.0786932; 26.8
-740916; 238675; -7.57459; -0.0786932; 26.9
-778863; 247776; -8.44363; -0.0786932; 27
-858876; 266708; -10.1621; -0.0788466; 27.3
-894164; 274994; -10.8944; -0.0791534; 27.4
-937617; 285117; -11.7656; -0.0794602; 27.5
-987515; 296521; -12.6832; -0.0800738; 27.8
-1.03709e+06; 307764; -13.5644; -0.0803806; 27.9
-1.0897e+06; 319561; -14.455; -0.0809942; 28
-1.13827e+06; 330430; -15.2707; -0.0811476; 28
-1.20294e+06; 344683; -16.2866; -0.0817612; 28.2
-1.26266e+06; 357848; -17.2249; -0.0817612; 28.2
-1.39092e+06; 385296; -18.986; -0.0826816; 28.7
-1.4637e+06; 400841; -19.9779; -0.082835; 28.7
-1.53875e+06; 416550; -20.9124; -0.083602; 29
-1.60944e+06; 431264; -21.7732; -0.0840621; 29
-1.69679e+06; 449119; -22.7563; -0.0849825; 29.2
-1.79388e+06; 468644; -23.7739; -0.0857495; 29.4
-1.89702e+06; 489126; -24.7988; -0.0865165; 29.5
-2.12389e+06; 533312; -26.8715; -0.0875903; 29.7
-2.24923e+06; 557340; -27.9399; -0.0883573; 29.9
-2.50871e+06; 605891; -29.9288; -0.0895845; 30.2
-2.65582e+06; 633182; -31.015; -0.0900447; 30.3
-2.81528e+06; 662561; -32.157; -0.0903515; 30.4
-2.98141e+06; 692705; -33.2694; -0.0911185; 30.6
-3.15385e+06; 723624; -34.3674; -0.0918854; 30.7
-3.32064e+06; 753231; -35.3844; -0.092499; 30.8
-3.51531e+06; 787384; -36.5138; -0.093266; 30.9
-3.72905e+06; 824328; -37.6751; -0.094033; 31.1
-3.97907e+06; 866494; -38.8992; -0.0957204; 31.3
-4.24684e+06; 911145; -40.1484; -0.0964874; 31.4
-4.52049e+06; 956047; -41.3424; -0.0977146; 31.5
-4.82514e+06; 1.00509e+06; -42.5667; -0.0989418; 31.7
-5.50358e+06; 1.11112e+06; -44.9746; -0.101243; 31.9
-5.92735e+06; 1.17594e+06; -46.3465; -0.102777; 32.1
-6.36007e+06; 1.24142e+06; -47.6849; -0.103544; 32.2
-6.85598e+06; 1.3148e+06; -49.0835; -0.105538; 32.3
-7.35745e+06; 1.3879e+06; -50.4074; -0.106458; 32.5
-8.5087e+06; 1.55064e+06; -53.0815; -0.109066; 32.7
-9.15225e+06; 1.64017e+06; -54.4753; -0.11014; 32.9
-1.06751e+07; 1.84752e+06; -57.4849; -0.111827; 33.1
-1.13659e+07; 1.94049e+06; -58.7806; -0.112441; 33.3
-1.23044e+07; 2.0654e+06; -60.4589; -0.113361; 33.4
-1.31035e+07; 2.17057e+06; -61.8217; -0.114282; 33.5
-1.40309e+07; 2.29176e+06; -63.3547; -0.114742; 33.6
-1.49963e+07; 2.41704e+06; -64.9019; -0.115202; 33.7
-1.60389e+07; 2.55064e+06; -66.4814; -0.115969; 33.9
-1.71375e+07; 2.68951e+06; -68.0534; -0.117196; 34
-1.81556e+07; 2.81665e+06; -69.4373; -0.11827; 34.1
-2.09506e+07; 3.15469e+06; -72.7522; -0.121031; 34.4
-2.2459e+07; 3.33432e+06; -74.4287; -0.122565; 34.5
-2.41784e+07; 3.5346e+06; -76.1688; -0.124559; 34.7
-2.59611e+07; 3.74037e+06; -77.904; -0.125326; 34.8
-2.80032e+07; 3.97144e+06; -79.7345; -0.127474; 34.9
-3.00795e+07; 4.2028e+06; -81.4751; -0.128701; 35.1
-3.20703e+07; 4.42228e+06; -83.0743; -0.130082; 35.1
-3.46056e+07; 4.69661e+06; -84.9543; -0.131769; 35.3
-3.72726e+07; 4.98107e+06; -86.8161; -0.133303; 35.4
-4.37371e+07; 5.64781e+06; -90.7305; -0.136678; 35.7
-4.68507e+07; 5.9652e+06; -92.5245; -0.137905; 35.8
-5.4646e+07; 6.73734e+06; -96.5077; -0.141126; 36
-5.89478e+07; 7.15651e+06; -98.5553; -0.14266; 36.2
-6.3774e+07; 7.61921e+06; -100.697; -0.144194; 36.4
-6.87903e+07; 8.09279e+06; -102.784; -0.146035; 36.5
-7.42244e+07; 8.59855e+06; -104.914; -0.147722; 36.6
-8.6344e+07; 9.69461e+06; -109.116; -0.15079; 36.9
-9.31617e+07; 1.03058e+07; -111.392; -0.151711; 37
-1.08498e+08; 1.16439e+07; -115.951; -0.154625; 37.3
-1.16616e+08; 1.23435e+07; -118.236; -0.155699; 37.5
-1.24304e+08; 1.30029e+07; -120.358; -0.156466; 37.5
-1.33037e+08; 1.37421e+07; -122.633; -0.157693; 37.7
-1.42546e+08; 1.45397e+07; -125.009; -0.158307; 37.9
-1.52844e+08; 1.53962e+07; -127.491; -0.159227; 38
-1.62775e+08; 1.62213e+07; -129.875; -0.159381; 38
-1.71949e+08; 1.69752e+07; -131.971; -0.160301; 38.2
-1.84765e+08; 1.8017e+07; -134.76; -0.161221; 38.4
-2.074e+08; 1.98335e+07; -139.416; -0.162449; 38.6
-2.32184e+08; 2.17962e+07; -144.211; -0.163369; 38.9
-2.48044e+08; 2.3041e+07; -147.158; -0.163983; 39.1
-2.60044e+08; 2.39786e+07; -149.343; -0.164289; 39.2
-2.74839e+08; 2.51267e+07; -151.95; -0.164596; 39.4
-2.89685e+08; 2.62737e+07; -154.513; -0.164903; 39.5
-3.05035e+08; 2.74544e+07; -157.111; -0.16521; 39.6
-3.21586e+08; 2.87176e+07; -159.812; -0.16567; 39.8
-3.37749e+08; 2.99469e+07; -162.408; -0.165823; 39.9
-3.54197e+08; 3.11947e+07; -165.016; -0.165823; 40
-3.71168e+08; 3.24779e+07; -167.664; -0.165977; 40.1
-4.04971e+08; 3.50053e+07; -172.672; -0.16659; 40.4
-4.43991e+08; 3.78854e+07; -178.121; -0.167511; 40.7
-4.6168e+08; 3.91855e+07; -180.544; -0.167817; 40.8
-4.81586e+08; 4.06383e+07; -183.188; -0.168584; 40.9
-5.03866e+08; 4.2252e+07; -186.046; -0.169045; 41.1
-5.25823e+08; 4.38357e+07; -188.808; -0.169351; 41.2
-5.48384e+08; 4.54546e+07; -191.582; -0.169812; 41.3
-5.71813e+08; 4.71261e+07; -194.383; -0.169965; 41.5
-5.95443e+08; 4.88034e+07; -197.145; -0.170425; 41.6
-6.20868e+08; 5.0599e+07; -200.05; -0.170885; 41.7
-6.69162e+08; 5.3976e+07; -205.317; -0.171346; 42
-6.97454e+08; 5.59463e+07; -208.344; -0.171652; 42.1
-7.24482e+08; 5.78178e+07; -211.158; -0.171806; 42.3
-7.53862e+08; 5.98439e+07; -214.16; -0.172113; 42.4
-7.78886e+08; 6.15614e+07; -216.657; -0.172113; 42.6
-8.08933e+08; 6.36188e+07; -219.621; -0.172113; 42.7
-8.38297e+08; 6.56248e+07; -222.483; -0.172113; 42.8
-8.69685e+08; 6.77622e+07; -225.497; -0.172266; 42.9
-9.33611e+08; 7.20748e+07; -231.355; -0.172266; 43.3
-9.61964e+08; 7.39875e+07; -233.954; -0.172266; 43.3
-1.02883e+09; 7.84672e+07; -239.873; -0.172266; 43.6
-1.06361e+09; 8.07869e+07; -242.883; -0.172266; 43.8
-1.09897e+09; 8.31399e+07; -245.908; -0.172266; 43.9
-1.12953e+09; 8.51681e+07; -248.492; -0.172266; 44
-1.17324e+09; 8.8057e+07; -252.106; -0.172266; 44.2
-1.20438e+09; 9.01103e+07; -254.652; -0.172266; 44.3
-1.24467e+09; 9.27606e+07; -257.908; -0.172266; 44.4
-1.3193e+09; 9.76371e+07; -263.74; -0.172266; 44.7
-1.39657e+09; 1.02653e+08; -269.58; -0.172266; 45
-1.44453e+09; 1.05759e+08; -273.165; -0.172266; 45.1
-1.48079e+09; 1.08102e+08; -275.845; -0.172266; 45.2
-1.52323e+09; 1.10832e+08; -278.914; -0.172266; 45.4
-1.56694e+09; 1.13638e+08; -282.039; -0.172266; 45.5
-1.60905e+09; 1.16335e+08; -285.017; -0.172266; 45.6
-1.6585e+09; 1.19483e+08; -288.415; -0.172573; 45.8
-1.69816e+09; 1.22e+08; -291.101; -0.172726; 45.9
-1.74634e+09; 1.25043e+08; -294.294; -0.173186; 46
-1.84773e+09; 1.31377e+08; -300.687; -0.173953; 46.3
-1.90063e+09; 1.34672e+08; -303.975; -0.174107; 46.4
-1.95335e+09; 1.37935e+08; -307.159; -0.174414; 46.6
-1.99897e+09; 1.40749e+08; -309.867; -0.17472; 46.7
-2.06326e+09; 1.44683e+08; -313.55; -0.175334; 46.9
-2.11477e+09; 1.47822e+08; -316.449; -0.175641; 47
-2.24316e+09; 1.55538e+08; -323.236; -0.177021; 47.3
-2.3e+09; 1.58935e+08; -326.168; -0.177635; 47.4
-2.43747e+09; 1.6704e+08; -332.857; -0.179322; 47.6
-2.51063e+09; 1.71321e+08; -336.295; -0.179936; 47.8
-2.58868e+09; 1.75851e+08; -339.841; -0.18101; 47.9
-2.66555e+09; 1.80272e+08; -343.193; -0.18193; 48.1
-2.74935e+09; 1.85058e+08; -346.739; -0.182851; 48.2
-2.83515e+09; 1.89958e+08; -350.368; -0.182851; 48.2
-2.91125e+09; 1.94249e+08; -353.408; -0.184078; 48.5
-3.10343e+09; 2.04955e+08; -360.681; -0.185151; 48.8
-3.20906e+09; 2.1083e+08; -364.652; -0.185458; 48.8
-3.38406e+09; 2.20464e+08; -370.929; -0.186225; 49.1
-3.50307e+09; 2.26979e+08; -375.085; -0.186532; 49.3
-3.59709e+09; 2.32103e+08; -378.303; -0.186992; 49.4
-3.7086e+09; 2.3815e+08; -382.032; -0.187146; 49.6
-3.81922e+09; 2.44133e+08; -385.681; -0.187299; 49.7
-3.9306e+09; 2.50139e+08; -389.308; -0.187452; 49.8
-4.04906e+09; 2.56491e+08; -393.063; -0.187759; 50
-4.15468e+09; 2.62139e+08; -396.368; -0.187913; 50.1
-4.29084e+09; 2.69405e+08; -400.587; -0.187913; 50.2
-4.53002e+09; 2.82093e+08; -407.778; -0.187913; 50.5
-4.67108e+09; 2.89561e+08; -411.978; -0.187913; 50.6
-4.91608e+09; 3.02446e+08; -419.037; -0.188066; 50.9
-5.17296e+09; 3.15875e+08; -426.223; -0.188066; 51.2
-5.31767e+09; 3.23426e+08; -430.232; -0.188066; 51.3
-5.45655e+09; 3.30658e+08; -434.043; -0.188066; 51.4
-5.59483e+09; 3.37831e+08; -437.763; -0.188066; 51.6
-5.74437e+09; 3.45573e+08; -441.748; -0.188066; 51.7
-5.86946e+09; 3.52037e+08; -445.05; -0.188066; 51.8
-6.03983e+09; 3.60806e+08; -449.46; -0.188066; 52
-6.17368e+09; 3.67683e+08; -452.892; -0.188066; 52.1
-6.32186e+09; 3.75296e+08; -456.691; -0.188066; 52.1
-6.64388e+09; 3.91714e+08; -464.638; -0.188066; 52.5
-6.8055e+09; 3.99922e+08; -468.551; -0.188066; 52.7
-6.95294e+09; 4.07396e+08; -472.087; -0.188066; 52.8
-7.11878e+09; 4.15787e+08; -476.027; -0.188066; 52.9
-7.28205e+09; 4.24032e+08; -479.87; -0.188066; 53
-7.45552e+09; 4.32776e+08; -483.914; -0.188066; 53.1
-7.80864e+09; 4.50475e+08; -491.917; -0.188066; 53.4
-7.9624e+09; 4.58153e+08; -495.338; -0.188066; 53.6
-8.33228e+09; 4.76555e+08; -503.414; -0.188066; 53.8
-8.52412e+09; 4.86063e+08; -507.526; -0.188066; 54
-8.71367e+09; 4.95423e+08; -511.514; -0.188066; 54.2
-8.88174e+09; 5.03707e+08; -515.017; -0.188066; 54.3
-9.08972e+09; 5.1394e+08; -519.313; -0.188066; 54.4
-9.28882e+09; 5.23718e+08; -523.388; -0.188066; 54.5
-9.47796e+09; 5.32989e+08; -527.224; -0.188066; 54.6
